Density     Ross opa    Planck opa  No. Free    Av Sq Free  T=  4.0000E-03
  1.0000E-15  3.4959E-01  4.9979E+01  1.0943E+00  1.2923E+00
  1.9415E-15  3.4959E-01  4.9979E+01  1.0943E+00  1.2923E+00
  3.7694E-15  3.4979E-01  5.0758E+01  1.0943E+00  1.2923E+00
  7.3182E-15  3.5072E-01  5.6293E+01  1.0942E+00  1.2920E+00
  1.4208E-14  3.5183E-01  6.1854E+01  1.0942E+00  1.2917E+00
  2.7585E-14  3.5316E-01  6.8635E+01  1.0941E+00  1.2912E+00
  5.3557E-14  3.5475E-01  7.5905E+01  1.0941E+00  1.2905E+00
  1.0398E-13  3.5657E-01  8.3672E+01  1.0940E+00  1.2899E+00
  2.0188E-13  3.5880E-01  9.3065E+01  1.0939E+00  1.2890E+00
  3.9194E-13  3.6146E-01  1.0020E+02  1.0938E+00  1.2884E+00
  7.6095E-13  3.6471E-01  1.0740E+02  1.0938E+00  1.2879E+00
  1.4774E-12  3.6866E-01  1.1597E+02  1.0937E+00  1.2873E+00
  2.8683E-12  3.7333E-01  1.2554E+02  1.0937E+00  1.2870E+00
  5.5688E-12  3.7898E-01  1.4043E+02  1.0936E+00  1.2866E+00
  1.0812E-11  3.8705E-01  1.6546E+02  1.0935E+00  1.2861E+00
  2.0991E-11  4.0504E-01  2.0428E+02  1.0935E+00  1.2856E+00
  4.0754E-11  4.3015E-01  2.5803E+02  1.0934E+00  1.2851E+00
  7.9123E-11  4.6865E-01  3.3677E+02  1.0932E+00  1.2842E+00
  1.5362E-10  5.3282E-01  4.0890E+02  1.0930E+00  1.2833E+00
  2.9825E-10  6.4189E-01  4.8284E+02  1.0927E+00  1.2820E+00
  5.7904E-10  8.3012E-01  5.6463E+02  1.0922E+00  1.2800E+00
  1.1242E-09  1.1599E+00  6.3870E+02  1.0913E+00  1.2770E+00
  2.1826E-09  1.7606E+00  7.4805E+02  1.0897E+00  1.2719E+00
  4.2376E-09  2.8745E+00  9.2426E+02  1.0867E+00  1.2628E+00
  8.2272E-09  5.0489E+00  1.1900E+03  1.0818E+00  1.2479E+00
  1.5973E-08  9.3113E+00  1.5920E+03  1.0743E+00  1.2250E+00
  3.1012E-08  1.7444E+01  2.2350E+03  1.0620E+00  1.1879E+00
  6.0209E-08  3.3317E+01  2.8653E+03  1.0498E+00  1.1512E+00
  1.1690E-07  6.3581E+01  3.6069E+03  1.0357E+00  1.1090E+00
  2.2695E-07  1.2028E+02  4.4139E+03  1.0210E+00  1.0651E+00
  4.4062E-07  2.3278E+02  5.1313E+03  1.0143E+00  1.0454E+00
  8.5547E-07  4.5522E+02  6.1731E+03  1.0071E+00  1.0250E+00
  1.6609E-06  8.8447E+02  7.6478E+03  1.0022E+00  1.0122E+00
  3.2246E-06  1.7756E+03  1.0029E+04  9.9895E-01  1.0059E+00
  6.2605E-06  3.5131E+03  1.4461E+04  9.9451E-01  9.9879E-01
  1.2155E-05  6.8056E+03  2.2779E+04  9.8827E-01  9.9107E-01
  2.3598E-05  1.2832E+04  3.5686E+04  9.7901E-01  9.8111E-01
  4.5816E-05  2.3628E+04  5.8823E+04  9.6360E-01  9.6501E-01
  8.8951E-05  4.2298E+04  1.0027E+05  9.3882E-01  9.3981E-01
  1.7270E-04  6.9381E+04  1.5670E+05  9.0456E-01  9.0528E-01
  3.3529E-04  1.1309E+05  2.4640E+05  8.4945E-01  8.4992E-01
  6.5097E-04  1.6170E+05  3.3802E+05  7.8990E-01  7.9026E-01
  1.2638E-03  2.2587E+05  4.5633E+05  7.1169E-01  7.1193E-01
  2.4538E-03  2.9457E+05  5.7333E+05  6.3053E-01  6.3071E-01
  4.7639E-03  3.7030E+05  6.9774E+05  5.4720E-01  5.4733E-01
  9.2491E-03  4.4846E+05  8.2284E+05  4.6924E-01  4.6934E-01
  1.7957E-02  5.2934E+05  9.5179E+05  3.9997E-01  4.0005E-01
  3.4864E-02  6.1427E+05  1.0903E+06  3.4455E-01  3.4463E-01
  6.7688E-02  6.9491E+05  1.2178E+06  3.1445E-01  3.1455E-01
  1.3141E-01  7.6526E+05  1.3351E+06  3.1058E-01  3.1072E-01
  2.5514E-01  7.6192E+05  1.3008E+06  3.8933E-01  3.8959E-01
  4.9535E-01  6.1795E+05  8.7711E+05  6.3028E-01  6.3120E-01
  9.6172E-01  3.3657E+05  4.0663E+05  9.0284E-01  9.0631E-01
  1.8672E+00  1.7991E+05  2.0004E+05  9.9409E-01  1.0025E+00
  3.6251E+00  1.1370E+05  1.2001E+05  1.0148E+00  1.0493E+00
  7.0381E+00  7.2076E+04  7.3979E+04  1.0402E+00  1.1302E+00
  1.3664E+01  4.2431E+04  4.3019E+04  1.0609E+00  1.1987E+00
  2.6529E+01  2.3957E+04  2.4122E+04  1.0768E+00  1.2514E+00
  5.1507E+01  1.6156E+04  1.6231E+04  1.0859E+00  1.2826E+00
  1.0000E+02  9.2042E+03  9.2314E+03  1.0907E+00  1.2992E+00
Rosseland and Planck opacities and free electrons
 Density     Ross opa    Planck opa  No. Free    Av Sq Free  T=  5.0000E-03
  1.0000E-15  3.4900E-01  6.6713E+01  1.0948E+00  1.2984E+00
  1.9415E-15  3.4900E-01  6.6713E+01  1.0948E+00  1.2984E+00
  3.7694E-15  3.4900E-01  6.6713E+01  1.0948E+00  1.2984E+00
  7.3182E-15  3.4933E-01  6.7875E+01  1.0948E+00  1.2981E+00
  1.4208E-14  3.4972E-01  7.0054E+01  1.0948E+00  1.2975E+00
  2.7585E-14  3.5040E-01  7.0257E+01  1.0947E+00  1.2967E+00
  5.3557E-14  3.5126E-01  6.9651E+01  1.0946E+00  1.2959E+00
  1.0398E-13  3.5238E-01  6.7909E+01  1.0945E+00  1.2949E+00
  2.0188E-13  3.5395E-01  6.4778E+01  1.0945E+00  1.2942E+00
  3.9194E-13  3.5576E-01  6.0724E+01  1.0944E+00  1.2936E+00
  7.6095E-13  3.5792E-01  5.5178E+01  1.0943E+00  1.2930E+00
  1.4774E-12  3.6051E-01  5.1179E+01  1.0943E+00  1.2925E+00
  2.8683E-12  3.6368E-01  4.9282E+01  1.0942E+00  1.2921E+00
  5.5688E-12  3.6746E-01  5.0242E+01  1.0942E+00  1.2916E+00
  1.0812E-11  3.7234E-01  5.6405E+01  1.0941E+00  1.2910E+00
  2.0991E-11  3.7861E-01  6.5039E+01  1.0940E+00  1.2903E+00
  4.0754E-11  3.8822E-01  7.7685E+01  1.0939E+00  1.2894E+00
  7.9123E-11  4.1003E-01  8.8406E+01  1.0939E+00  1.2887E+00
  1.5362E-10  4.4051E-01  9.9973E+01  1.0938E+00  1.2880E+00
  2.9825E-10  4.8719E-01  1.1396E+02  1.0937E+00  1.2872E+00
  5.7904E-10  5.6537E-01  1.3015E+02  1.0936E+00  1.2867E+00
  1.1242E-09  7.0029E-01  1.5468E+02  1.0935E+00  1.2860E+00
  2.1826E-09  9.3700E-01  1.9442E+02  1.0933E+00  1.2851E+00
  4.2376E-09  1.3714E+00  2.4933E+02  1.0931E+00  1.2841E+00
  8.2272E-09  2.1903E+00  3.2898E+02  1.0927E+00  1.2825E+00
  1.5973E-08  3.7507E+00  4.5407E+02  1.0920E+00  1.2799E+00
  3.1012E-08  6.8531E+00  6.2821E+02  1.0908E+00  1.2761E+00
  6.0209E-08  1.3071E+01  9.1947E+02  1.0887E+00  1.2695E+00
  1.1690E-07  2.5243E+01  1.4280E+03  1.0850E+00  1.2580E+00
  2.2695E-07  5.0553E+01  2.2151E+03  1.0791E+00  1.2402E+00
  4.4062E-07  1.0190E+02  3.4712E+03  1.0702E+00  1.2136E+00
  8.5547E-07  2.0192E+02  5.5753E+03  1.0562E+00  1.1718E+00
  1.6609E-06  4.0375E+02  7.6217E+03  1.0439E+00  1.1356E+00
  3.2246E-06  7.9009E+02  1.0302E+04  1.0293E+00  1.0933E+00
  6.2605E-06  1.5224E+03  1.3542E+04  1.0152E+00  1.0536E+00
  1.2155E-05  2.9010E+03  1.6997E+04  1.0072E+00  1.0339E+00
  2.3598E-05  5.4381E+03  2.2441E+04  9.9757E-01  1.0128E+00
  4.5816E-05  1.0037E+04  3.0979E+04  9.8769E-01  9.9655E-01
  8.8951E-05  1.7856E+04  4.5386E+04  9.7603E-01  9.8206E-01
  1.7270E-04  3.0964E+04  6.9520E+04  9.5763E-01  9.6118E-01
  3.3529E-04  5.2188E+04  1.0717E+05  9.2968E-01  9.3201E-01
  6.5097E-04  8.0497E+04  1.5542E+05  8.9369E-01  8.9528E-01
  1.2638E-03  1.2448E+05  2.3164E+05  8.3689E-01  8.3783E-01
  2.4538E-03  1.6876E+05  3.1226E+05  7.7843E-01  7.7915E-01
  4.7639E-03  2.2557E+05  4.2365E+05  6.9956E-01  7.0002E-01
  9.2491E-03  2.7953E+05  5.4021E+05  6.2254E-01  6.2289E-01
  1.7957E-02  3.3515E+05  6.6977E+05  5.4394E-01  5.4419E-01
  3.4864E-02  3.8723E+05  8.0461E+05  4.7610E-01  4.7631E-01
  6.7688E-02  4.2936E+05  9.2124E+05  4.3607E-01  4.3628E-01
  1.3141E-01  4.6656E+05  1.0246E+06  4.2370E-01  4.2395E-01
  2.5514E-01  4.7599E+05  9.9569E+05  4.9614E-01  4.9657E-01
  4.9535E-01  4.2385E+05  6.9350E+05  6.9250E-01  6.9377E-01
  9.6172E-01  2.7759E+05  3.6987E+05  8.9699E-01  9.0123E-01
  1.8672E+00  1.6274E+05  1.9021E+05  9.8899E-01  1.0014E+00
  3.6251E+00  1.0528E+05  1.1475E+05  1.0180E+00  1.0600E+00
  7.0381E+00  6.8971E+04  7.2012E+04  1.0432E+00  1.1397E+00
  1.3664E+01  4.1029E+04  4.1792E+04  1.0643E+00  1.2094E+00
  2.6529E+01  2.3264E+04  2.3526E+04  1.0766E+00  1.2502E+00
  5.1507E+01  1.4988E+04  1.5079E+04  1.0858E+00  1.2818E+00
  1.0000E+02  9.4561E+03  9.4966E+03  1.0925E+00  1.3041E+00
Rosseland and Planck opacities and free electrons
 Density     Ross opa    Planck opa  No. Free    Av Sq Free  T=  6.0000E-03
  1.0000E-15  3.5126E-01  4.9673E+01  1.0950E+00  1.3004E+00
  1.9415E-15  3.5126E-01  4.9673E+01  1.0950E+00  1.3004E+00
  3.7694E-15  3.5126E-01  4.9673E+01  1.0950E+00  1.3004E+00
  7.3182E-15  3.5149E-01  4.9300E+01  1.0950E+00  1.3004E+00
  1.4208E-14  3.5223E-01  4.7349E+01  1.0950E+00  1.3003E+00
  2.7585E-14  3.5315E-01  4.4928E+01  1.0950E+00  1.3001E+00
  5.3557E-14  3.5413E-01  4.1511E+01  1.0950E+00  1.2999E+00
  1.0398E-13  3.5530E-01  3.7658E+01  1.0950E+00  1.2996E+00
  2.0188E-13  3.5645E-01  3.4917E+01  1.0949E+00  1.2993E+00
  3.9194E-13  3.5760E-01  3.3194E+01  1.0949E+00  1.2989E+00
  7.6095E-13  3.5884E-01  3.6404E+01  1.0948E+00  1.2984E+00
  1.4774E-12  3.6063E-01  4.4885E+01  1.0948E+00  1.2978E+00
  2.8683E-12  3.6272E-01  6.0230E+01  1.0947E+00  1.2970E+00
  5.5688E-12  3.6551E-01  8.1431E+01  1.0946E+00  1.2961E+00
  1.0812E-11  3.6939E-01  1.0268E+02  1.0945E+00  1.2952E+00
  2.0991E-11  3.7462E-01  1.2786E+02  1.0945E+00  1.2942E+00
  4.0754E-11  3.8164E-01  1.4659E+02  1.0944E+00  1.2935E+00
  7.9123E-11  3.9391E-01  1.6082E+02  1.0943E+00  1.2929E+00
  1.5362E-10  4.1244E-01  1.7282E+02  1.0943E+00  1.2922E+00
  2.9825E-10  4.3733E-01  1.7439E+02  1.0942E+00  1.2916E+00
  5.7904E-10  4.7779E-01  1.7059E+02  1.0941E+00  1.2909E+00
  1.1242E-09  5.4536E-01  1.6124E+02  1.0940E+00  1.2900E+00
  2.1826E-09  6.6121E-01  1.5245E+02  1.0939E+00  1.2891E+00
  4.2376E-09  8.6368E-01  1.4918E+02  1.0938E+00  1.2883E+00
  8.2272E-09  1.2227E+00  1.5309E+02  1.0936E+00  1.2872E+00
  1.5973E-08  1.8818E+00  1.7345E+02  1.0935E+00  1.2864E+00
  3.1012E-08  3.1454E+00  2.1559E+02  1.0932E+00  1.2852E+00
  6.0209E-08  5.5832E+00  2.9779E+02  1.0928E+00  1.2836E+00
  1.1690E-07  1.0469E+01  4.4924E+02  1.0921E+00  1.2812E+00
  2.2695E-07  2.0498E+01  7.1842E+02  1.0910E+00  1.2775E+00
  4.4062E-07  4.0392E+01  1.2140E+03  1.0889E+00  1.2710E+00
  8.5547E-07  8.1345E+01  2.1010E+03  1.0854E+00  1.2605E+00
  1.6609E-06  1.6531E+02  3.5506E+03  1.0798E+00  1.2438E+00
  3.2246E-06  3.2957E+02  6.0243E+03  1.0704E+00  1.2162E+00
  6.2605E-06  6.6179E+02  9.4634E+03  1.0587E+00  1.1823E+00
  1.2155E-05  1.3018E+03  1.4022E+04  1.0445E+00  1.1420E+00
  2.3598E-05  2.5175E+03  2.0568E+04  1.0262E+00  1.0913E+00
  4.5816E-05  4.7249E+03  2.6391E+04  1.0140E+00  1.0615E+00
  8.8951E-05  8.5950E+03  3.4952E+04  9.9921E-01  1.0286E+00
  1.7270E-04  1.5455E+04  4.7772E+04  9.8268E-01  9.9902E-01
  3.3529E-04  2.5946E+04  6.4699E+04  9.6592E-01  9.7741E-01
  6.5097E-04  4.2465E+04  9.1067E+04  9.4081E-01  9.4744E-01
  1.2638E-03  6.6908E+04  1.2977E+05  9.0567E-01  9.0979E-01
  2.4538E-03  9.5483E+04  1.8154E+05  8.6304E-01  8.6584E-01
  4.7639E-03  1.3575E+05  2.6509E+05  7.9647E-01  7.9807E-01
  9.2491E-03  1.6898E+05  3.4790E+05  7.3432E-01  7.3554E-01
  1.7957E-02  2.0862E+05  4.6050E+05  6.5373E-01  6.5450E-01
  3.4864E-02  2.4044E+05  5.6774E+05  5.8927E-01  5.8988E-01
  6.7688E-02  2.6880E+05  6.7253E+05  5.4129E-01  5.4178E-01
  1.3141E-01  2.9443E+05  7.6425E+05  5.2279E-01  5.2328E-01
  2.5514E-01  3.0959E+05  7.5082E+05  5.8637E-01  5.8709E-01
  4.9535E-01  2.9432E+05  5.4959E+05  7.4436E-01  7.4622E-01
  9.6172E-01  2.1454E+05  3.1206E+05  9.2676E-01  9.3199E-01
  1.8672E+00  1.3864E+05  1.7122E+05  9.9771E-01  1.0128E+00
  3.6251E+00  9.6502E+04  1.0864E+05  1.0209E+00  1.0683E+00
  7.0381E+00  6.4704E+04  6.8742E+04  1.0449E+00  1.1449E+00
  1.3664E+01  3.9241E+04  4.0296E+04  1.0659E+00  1.2139E+00
  2.6529E+01  2.2935E+04  2.3305E+04  1.0787E+00  1.2567E+00
  5.1507E+01  1.3276E+04  1.3381E+04  1.0873E+00  1.2868E+00
  1.0000E+02  9.3484E+03  9.4027E+03  1.0918E+00  1.3024E+00
Rosseland and Planck opacities and free electrons
 Density     Ross opa    Planck opa  No. Free    Av Sq Free  T=  7.0000E-03
  1.0000E-15  3.6142E-01  1.8065E+01  1.0952E+00  1.3021E+00
  1.9415E-15  3.6142E-01  1.8065E+01  1.0952E+00  1.3021E+00
  3.7694E-15  3.6142E-01  1.8065E+01  1.0952E+00  1.3021E+00
  7.3182E-15  3.6142E-01  1.8065E+01  1.0952E+00  1.3021E+00
  1.4208E-14  3.6133E-01  1.7210E+01  1.0951E+00  1.3019E+00
  2.7585E-14  3.6078E-01  1.6299E+01  1.0951E+00  1.3017E+00
  5.3557E-14  3.6036E-01  1.5950E+01  1.0951E+00  1.3013E+00
  1.0398E-13  3.6066E-01  1.6124E+01  1.0951E+00  1.3011E+00
  2.0188E-13  3.6096E-01  1.6709E+01  1.0951E+00  1.3008E+00
  3.9194E-13  3.6178E-01  1.8155E+01  1.0950E+00  1.3006E+00
  7.6095E-13  3.6339E-01  2.1843E+01  1.0950E+00  1.3004E+00
  1.4774E-12  3.6530E-01  2.9177E+01  1.0950E+00  1.3002E+00
  2.8683E-12  3.6781E-01  4.3554E+01  1.0950E+00  1.2999E+00
  5.5688E-12  3.7133E-01  6.3466E+01  1.0950E+00  1.2996E+00
  1.0812E-11  3.7503E-01  9.2122E+01  1.0949E+00  1.2992E+00
  2.0991E-11  3.7924E-01  1.2909E+02  1.0949E+00  1.2987E+00
  4.0754E-11  3.8456E-01  1.6384E+02  1.0948E+00  1.2981E+00
  7.9123E-11  3.9275E-01  2.0874E+02  1.0947E+00  1.2973E+00
  1.5362E-10  4.0677E-01  2.5921E+02  1.0946E+00  1.2963E+00
  2.9825E-10  4.2610E-01  2.9611E+02  1.0946E+00  1.2954E+00
  5.7904E-10  4.5470E-01  3.3317E+02  1.0945E+00  1.2943E+00
  1.1242E-09  4.9917E-01  3.5064E+02  1.0944E+00  1.2934E+00
  2.1826E-09  5.7078E-01  3.4800E+02  1.0943E+00  1.2927E+00
  4.2376E-09  6.8972E-01  3.3440E+02  1.0942E+00  1.2919E+00
  8.2272E-09  8.9267E-01  3.0690E+02  1.0941E+00  1.2910E+00
  1.5973E-08  1.2570E+00  2.8134E+02  1.0940E+00  1.2902E+00
  3.1012E-08  1.9253E+00  2.5527E+02  1.0938E+00  1.2890E+00
  6.0209E-08  3.1762E+00  2.4998E+02  1.0936E+00  1.2878E+00
  1.1690E-07  5.6522E+00  2.8554E+02  1.0934E+00  1.2866E+00
  2.2695E-07  1.0534E+01  3.7440E+02  1.0930E+00  1.2849E+00
  4.4062E-07  2.0202E+01  5.6764E+02  1.0923E+00  1.2827E+00
  8.5547E-07  4.0608E+01  9.5682E+02  1.0913E+00  1.2793E+00
  1.6609E-06  8.1549E+01  1.6879E+03  1.0894E+00  1.2735E+00
  3.2246E-06  1.6383E+02  3.0151E+03  1.0862E+00  1.2640E+00
  6.2605E-06  3.3377E+02  5.1424E+03  1.0811E+00  1.2493E+00
  1.2155E-05  6.6560E+02  8.6376E+03  1.0727E+00  1.2254E+00
  2.3598E-05  1.3196E+03  1.3629E+04  1.0607E+00  1.1918E+00
  4.5816E-05  2.5752E+03  1.9812E+04  1.0468E+00  1.1543E+00
  8.8951E-05  4.8882E+03  2.8771E+04  1.0279E+00  1.1048E+00
  1.7270E-04  8.9393E+03  3.8373E+04  1.0111E+00  1.0663E+00
  3.3529E-04  1.5539E+04  5.0595E+04  9.9265E-01  1.0293E+00
  6.5097E-04  2.6532E+04  6.8365E+04  9.6929E-01  9.8993E-01
  1.2638E-03  4.1405E+04  8.8251E+04  9.4607E-01  9.6066E-01
  2.4538E-03  6.1262E+04  1.2054E+05  9.1226E-01  9.2103E-01
  4.7639E-03  8.7633E+04  1.7490E+05  8.6138E-01  8.6658E-01
  9.2491E-03  1.0998E+05  2.3293E+05  8.1005E-01  8.1375E-01
  1.7957E-02  1.3801E+05  3.2201E+05  7.3359E-01  7.3574E-01
  3.4864E-02  1.5745E+05  3.9941E+05  6.7962E-01  6.8125E-01
  6.7688E-02  1.7768E+05  4.8943E+05  6.2777E-01  6.2892E-01
  1.3141E-01  1.9596E+05  5.6885E+05  6.0628E-01  6.0726E-01
  2.5514E-01  2.0926E+05  5.6284E+05  6.6393E-01  6.6520E-01
  4.9535E-01  2.1019E+05  4.3999E+05  7.9176E-01  7.9429E-01
  9.6172E-01  1.6965E+05  2.7110E+05  9.3329E-01  9.3980E-01
  1.8672E+00  1.2197E+05  1.5999E+05  9.9585E-01  1.0143E+00
  3.6251E+00  8.8822E+04  1.0386E+05  1.0232E+00  1.0768E+00
  7.0381E+00  6.1042E+04  6.6405E+04  1.0475E+00  1.1531E+00
  1.3664E+01  3.7854E+04  3.9357E+04  1.0674E+00  1.2184E+00
  2.6529E+01  2.2429E+04  2.2909E+04  1.0810E+00  1.2633E+00
  5.1507E+01  1.2605E+04  1.2746E+04  1.0875E+00  1.2871E+00
  1.0000E+02  8.8237E+03  8.8794E+03  1.0938E+00  1.3082E+00
Rosseland and Planck opacities and free electrons
 Density     Ross opa    Planck opa  No. Free    Av Sq Free  T=  8.0000E-03
  1.0000E-15  3.8525E-01  1.5998E+01  1.0953E+00  1.3040E+00
  1.9415E-15  3.8525E-01  1.5998E+01  1.0953E+00  1.3040E+00
  3.7694E-15  3.8525E-01  1.5998E+01  1.0953E+00  1.3040E+00
  7.3182E-15  3.8525E-01  1.5998E+01  1.0953E+00  1.3040E+00
  1.4208E-14  3.8538E-01  1.6025E+01  1.0953E+00  1.3038E+00
  2.7585E-14  3.8399E-01  1.6231E+01  1.0952E+00  1.3033E+00
  5.3557E-14  3.8378E-01  1.7761E+01  1.0952E+00  1.3031E+00
  1.0398E-13  3.8311E-01  1.9919E+01  1.0952E+00  1.3028E+00
  2.0188E-13  3.8211E-01  2.3147E+01  1.0952E+00  1.3025E+00
  3.9194E-13  3.8202E-01  2.6358E+01  1.0952E+00  1.3022E+00
  7.6095E-13  3.8160E-01  3.0355E+01  1.0951E+00  1.3019E+00
  1.4774E-12  3.8093E-01  3.5680E+01  1.0951E+00  1.3016E+00
  2.8683E-12  3.8187E-01  4.0097E+01  1.0951E+00  1.3013E+00
  5.5688E-12  3.8291E-01  4.4281E+01  1.0951E+00  1.3010E+00
  1.0812E-11  3.8463E-01  4.7977E+01  1.0950E+00  1.3007E+00
  2.0991E-11  3.8923E-01  4.9347E+01  1.0950E+00  1.3004E+00
  4.0754E-11  3.9452E-01  5.0532E+01  1.0950E+00  1.3001E+00
  7.9123E-11  4.0134E-01  5.1340E+01  1.0950E+00  1.2998E+00
  1.5362E-10  4.1095E-01  5.1775E+01  1.0949E+00  1.2994E+00
  2.9825E-10  4.2641E-01  5.2269E+01  1.0949E+00  1.2989E+00
  5.7904E-10  4.5196E-01  5.2845E+01  1.0948E+00  1.2981E+00
  1.1242E-09  4.8734E-01  5.3470E+01  1.0947E+00  1.2973E+00
  2.1826E-09  5.4242E-01  5.4761E+01  1.0946E+00  1.2963E+00
  4.2376E-09  6.2976E-01  5.7380E+01  1.0945E+00  1.2951E+00
  8.2272E-09  7.7411E-01  6.3143E+01  1.0944E+00  1.2942E+00
  1.5973E-08  1.0194E+00  7.4015E+01  1.0943E+00  1.2932E+00
  3.1012E-08  1.4479E+00  9.4534E+01  1.0942E+00  1.2921E+00
  6.0209E-08  2.2368E+00  1.2653E+02  1.0941E+00  1.2912E+00
  1.1690E-07  3.7403E+00  1.7825E+02  1.0939E+00  1.2901E+00
  2.2695E-07  6.5960E+00  2.6515E+02  1.0936E+00  1.2886E+00
  4.4062E-07  1.2430E+01  3.9015E+02  1.0933E+00  1.2872E+00
  8.5547E-07  2.4264E+01  6.1324E+02  1.0928E+00  1.2852E+00
  1.6609E-06  4.7304E+01  1.0202E+03  1.0919E+00  1.2823E+00
  3.2246E-06  9.6939E+01  1.6947E+03  1.0906E+00  1.2783E+00
  6.2605E-06  1.9735E+02  2.8439E+03  1.0883E+00  1.2717E+00
  1.2155E-05  3.9309E+02  4.8473E+03  1.0843E+00  1.2601E+00
  2.3598E-05  7.9961E+02  7.6759E+03  1.0783E+00  1.2435E+00
  4.5816E-05  1.5884E+03  1.2227E+04  1.0689E+00  1.2180E+00
  8.8951E-05  3.0909E+03  1.9558E+04  1.0543E+00  1.1791E+00
  1.7270E-04  5.7952E+03  2.7918E+04  1.0392E+00  1.1416E+00
  3.3529E-04  1.0421E+04  3.9768E+04  1.0188E+00  1.0933E+00
  6.5097E-04  1.7994E+04  5.4077E+04  9.9684E-01  1.0474E+00
  1.2638E-03  2.8470E+04  6.8412E+04  9.7532E-01  1.0108E+00
  2.4538E-03  4.3164E+04  9.0030E+04  9.4509E-01  9.6600E-01
  4.7639E-03  5.9894E+04  1.2329E+05  9.0758E-01  9.2178E-01
  9.2491E-03  7.6670E+04  1.6605E+05  8.6150E-01  8.7055E-01
  1.7957E-02  9.6299E+04  2.3211E+05  7.9247E-01  7.9756E-01
  3.4864E-02  1.0857E+05  2.8625E+05  7.4873E-01  7.5262E-01
  6.7688E-02  1.2301E+05  3.5937E+05  6.9687E-01  6.9936E-01
  1.3141E-01  1.3503E+05  4.1696E+05  6.8234E-01  6.8431E-01
  2.5514E-01  1.4564E+05  4.1936E+05  7.2666E-01  7.2885E-01
  4.9535E-01  1.5087E+05  3.4772E+05  8.2753E-01  8.3116E-01
  9.6172E-01  1.3407E+05  2.3410E+05  9.4621E-01  9.5446E-01
  1.8672E+00  1.0610E+05  1.4873E+05  9.9833E-01  1.0211E+00
  3.6251E+00  8.0820E+04  9.8594E+04  1.0249E+00  1.0816E+00
  7.0381E+00  5.7122E+04  6.3609E+04  1.0478E+00  1.1540E+00
  1.3664E+01  3.7143E+04  3.9175E+04  1.0689E+00  1.2231E+00
  2.6529E+01  2.1607E+04  2.2161E+04  1.0819E+00  1.2660E+00
  5.1507E+01  1.2349E+04  1.2536E+04  1.0878E+00  1.2872E+00
  1.0000E+02  7.9283E+03  7.9835E+03  1.0929E+00  1.3053E+00
Rosseland and Planck opacities and free electrons
 Density     Ross opa    Planck opa  No. Free    Av Sq Free  T=  9.0000E-03
  1.0000E-15  4.1970E-01  2.9429E+01  1.0954E+00  1.3058E+00
  1.9415E-15  4.1970E-01  2.9429E+01  1.0954E+00  1.3058E+00
  3.7694E-15  4.1970E-01  2.9429E+01  1.0954E+00  1.3058E+00
  7.3182E-15  4.1970E-01  2.9429E+01  1.0954E+00  1.3058E+00
  1.4208E-14  4.2069E-01  2.9593E+01  1.0954E+00  1.3057E+00
  2.7585E-14  4.2161E-01  3.0284E+01  1.0954E+00  1.3054E+00
  5.3557E-14  4.2323E-01  3.2441E+01  1.0954E+00  1.3051E+00
  1.0398E-13  4.2364E-01  3.5851E+01  1.0953E+00  1.3048E+00
  2.0188E-13  4.2384E-01  4.0220E+01  1.0953E+00  1.3043E+00
  3.9194E-13  4.2414E-01  4.3275E+01  1.0953E+00  1.3039E+00
  7.6095E-13  4.2313E-01  4.6421E+01  1.0953E+00  1.3035E+00
  1.4774E-12  4.2284E-01  4.8485E+01  1.0952E+00  1.3031E+00
  2.8683E-12  4.2333E-01  4.8061E+01  1.0952E+00  1.3028E+00
  5.5688E-12  4.2297E-01  4.6027E+01  1.0952E+00  1.3025E+00
  1.0812E-11  4.2389E-01  4.1803E+01  1.0952E+00  1.3021E+00
  2.0991E-11  4.2587E-01  3.8063E+01  1.0951E+00  1.3018E+00
